  STEP   TOTAL TIME             LOCATION OF OBSERVATION POINTS (K,I,J)
                      1   5   5
     1    1.0000        0.0000    
     1    2.0000       0.55522    
     1    3.0000        1.1101    
     1    4.0000        1.6646    
     1    5.0000        2.2189    
     1    6.0000        2.7727    
     1    7.0000        3.3262    
     1    8.0000        3.8794    
     1    9.0000        4.4323    
     1    10.000        4.9848    
     1    11.000        5.5370    
     1    12.000        6.0888    
     1    13.000        6.6403    
     1    14.000        7.1914    
     1    15.000        7.7423    
     1    16.000        8.2928    
     1    17.000        8.8429    
     1    18.000        9.3927    
     1    19.000        9.9422    
     1    20.000        10.491    
     1    21.000        11.040    
     1    22.000        11.589    
     1    23.000        12.137    
     1    24.000        12.685    
     1    25.000        13.232    
     1    26.000        13.779    
     1    27.000        14.326    
     1    28.000        14.872    
     1    29.000        15.419    
     1    30.000        15.964    
     1    31.000        16.510    
     1    32.000        17.055    
     1    33.000        17.600    
     1    34.000        18.144    
     1    35.000        18.688    
     1    36.000        19.232    
     1    37.000        19.776    
     1    38.000        20.319    
     1    39.000        20.862    
     1    40.000        21.404    
     1    41.000        21.946    
     1    42.000        22.488    
     1    43.000        23.030    
     1    44.000        23.571    
     1    45.000        24.112    
     1    46.000        24.652    
     1    47.000        25.192    
     1    48.000        25.732    
     1    49.000        26.272    
     1    50.000        26.811    
     1    51.000        27.350    
     1    52.000        27.888    
     1    53.000        28.427    
     1    54.000        28.965    
     1    55.000        29.502    
     1    56.000        30.039    
     1    57.000        30.576    
     1    58.000        31.113    
     1    59.000        31.649    
     1    60.000        32.185    
     1    61.000        32.721    
     1    62.000        33.256    
     1    63.000        33.791    
     1    64.000        34.326    
     1    65.000        34.860    
     1    66.000        35.394    
     1    67.000        35.928    
     1    68.000        36.461    
     1    69.000        36.995    
     1    70.000        37.528    
     1    71.000        38.061    
     1    72.000        38.593    
     1    73.000        39.126    
     1    74.000        39.658    
     1    75.000        40.190    
     1    76.000        40.722    
     1    77.000        41.254    
     1    78.000        41.785    
     1    79.000        42.316    
     1    80.000        42.847    
     1    81.000        43.378    
     1    82.000        43.909    
     1    83.000        44.439    
     1    84.000        44.969    
     1    85.000        45.499    
     1    86.000        46.029    
     1    87.000        46.558    
     1    88.000        47.088    
     1    89.000        47.617    
     1    90.000        48.146    
     1    91.000        48.674    
     1    92.000        49.203    
     1    93.000        49.731    
     1    94.000        50.259    
     1    95.000        50.787    
     1    96.000        51.314    
     1    97.000        51.842    
     1    98.000        52.369    
     1    99.000        52.896    
     1    100.00        53.423    
     1    101.00        53.949    
     1    102.00        59.164    
     1    103.00        64.331    
     1    104.00        69.463    
     1    105.00        74.564    
     1    106.00        79.634    
     1    107.00        84.672    
     1    108.00        89.680    
     1    109.00        94.658    
     1    110.00        99.605    
     1    111.00        104.52    
     1    112.00        109.41    
     1    113.00        114.27    
     1    114.00        119.10    
     1    115.00        123.90    
     1    116.00        128.67    
     1    117.00        133.41    
     1    118.00        138.12    
     1    119.00        142.80    
     1    120.00        147.46    
     1    121.00        152.09    
     1    122.00        156.68    
     1    123.00        161.26    
     1    124.00        165.80    
     1    125.00        170.31    
     1    126.00        174.80    
     1    127.00        179.26    
     1    128.00        183.70    
     1    129.00        188.10    
     1    130.00        192.48    
     1    131.00        196.84    
     1    132.00        201.16    
     1    133.00        205.47    
     1    134.00        209.74    
     1    135.00        213.99    
     1    136.00        218.21    
     1    137.00        222.41    
     1    138.00        226.58    
     1    139.00        230.73    
     1    140.00        234.85    
     1    141.00        238.95    
     1    142.00        243.02    
     1    143.00        247.07    
     1    144.00        251.09    
     1    145.00        255.09    
     1    146.00        259.06    
     1    147.00        263.01    
     1    148.00        266.93    
     1    149.00        270.84    
     1    150.00        274.71    
     1    151.00        278.57    
     1    152.00        282.40    
     1    153.00        286.21    
     1    154.00        289.99    
     1    155.00        293.76    
     1    156.00        297.49    
     1    157.00        301.21    
     1    158.00        304.90    
     1    159.00        308.58    
     1    160.00        312.23    
     1    161.00        315.85    
     1    162.00        319.46    
     1    163.00        323.04    
     1    164.00        326.60    
     1    165.00        330.15    
     1    166.00        333.68    
     1    167.00        337.19    
     1    168.00        340.68    
     1    169.00        344.15    
     1    170.00        347.59    
     1    171.00        351.01    
     1    172.00        354.42    
     1    173.00        357.80    
     1    174.00        361.16    
     1    175.00        364.51    
     1    176.00        367.83    
     1    177.00        371.13    
     1    178.00        374.41    
     1    179.00        377.67    
     1    180.00        380.91    
     1    181.00        384.14    
     1    182.00        387.34    
     1    183.00        390.52    
     1    184.00        393.68    
     1    185.00        396.83    
     1    186.00        399.96    
     1    187.00        403.06    
     1    188.00        406.15    
     1    189.00        409.22    
     1    190.00        412.27    
     1    191.00        415.30    
     1    192.00        418.31    
     1    193.00        421.31    
     1    194.00        424.29    
     1    195.00        427.25    
     1    196.00        430.20    
     1    197.00        433.12    
     1    198.00        436.05    
     1    199.00        438.96    
     1    200.00        441.85    
     1    201.00        444.72    
